# Rescaled matter transfer functions [-T_i(k)/k^2] for adiabatic (AD) mode (normalized to initial curvature=1) at redshift z=100
# for k=1.04342e-05 to 1055.3 h/Mpc,
# number of wavenumbers equal to 632
# T_i   stands for (delta rho_i/rho_i)(k,z) with above normalization 
# The rescaling factor [-1/k^2] with k in 1/Mpc is here to match the CMBFAST/CAMB output convention
#
#
#    1:k (h/Mpc)              2:-T_cdm/k2              3:-T_b/k2                4:-T_g/k2                5:-T_ur/k2               6:-T_ncdm/k2             7:-T_tot/k2          
       1.043424818159e-05       2.369986455672e+05       2.369986372482e+05       3.159968753347e+05       3.159967177126e+05       2.725891063504e+05       2.391881791643e+05 
       2.331415921247e-05       2.369984114583e+05       2.369983699259e+05       3.159912981254e+05       3.159905112153e+05       2.725849003710e+05       2.391877773822e+05 
       3.623931803809e-05       2.369979825721e+05       2.369978822235e+05       3.159814029546e+05       3.159795017380e+05       2.725774359829e+05       2.391870514495e+05 
       4.924449515852e-05       2.369973660062e+05       2.369971807107e+05       3.159671156582e+05       3.159636051957e+05       2.725666588277e+05       2.391860059010e+05 
       6.236503573839e-05       2.369965485240e+05       2.369962513383e+05       3.159482901056e+05       3.159426601832e+05       2.725524576139e+05       2.391846233394e+05 
       7.563717471910e-05       2.369955273732e+05       2.369950902409e+05       3.159247469373e+05       3.159164665030e+05       2.725346978274e+05       2.391828954645e+05 
       8.909836200060e-05       2.369942900472e+05       2.369936834694e+05       3.158962435048e+05       3.158847545598e+05       2.725131960706e+05       2.391808025481e+05 
       1.027876020175e-04       2.369928268497e+05       2.369920195658e+05       3.158624859528e+05       3.158471972639e+05       2.724877311875e+05       2.391783259780e+05 
       1.167458120668e-04       2.369911199900e+05       2.369900785806e+05       3.158231096077e+05       3.158033894480e+05       2.724580277812e+05       2.391754370818e+05 
       1.310162037789e-04       2.369891504141e+05       2.369878388576e+05       3.157776811524e+05       3.157528493719e+05       2.724237589160e+05       2.391721038045e+05 
       1.456446921286e-04       2.369868962893e+05       2.369852755139e+05       3.157256883149e+05       3.156950074968e+05       2.723845382318e+05       2.391682889267e+05 
       1.606803363246e-04       2.369843306277e+05       2.369823579579e+05       3.156665268180e+05       3.156291921446e+05       2.723399097362e+05       2.391639473475e+05 
       1.761758167372e-04       2.369814233857e+05       2.369790518858e+05       3.155994910712e+05       3.155546189364e+05       2.722893412602e+05       2.391590278211e+05 
       1.921879516540e-04       2.369781386321e+05       2.369753164493e+05       3.155237561230e+05       3.154703710292e+05       2.722322104838e+05       2.391534696627e+05 
       2.087782569954e-04       2.369744346944e+05       2.369711043318e+05       3.154383607708e+05       3.153753802591e+05       2.721677923975e+05       2.391472023668e+05 
       2.260135510470e-04       2.369702620942e+05       2.369663591959e+05       3.153421850945e+05       3.152684019161e+05       2.720952417915e+05       2.391401428417e+05 
       2.439666045981e-04       2.369655642933e+05       2.369610166993e+05       3.152339269203e+05       3.151479891782e+05       2.720135763817e+05       2.391321954675e+05 
       2.627168344057e-04       2.369602753943e+05       2.369550020904e+05       3.151120701772e+05       3.150124583878e+05       2.719216528847e+05       2.391232488927e+05 
       2.823510343511e-04       2.369543180055e+05       2.369482270923e+05       3.149748508557e+05       3.148598496917e+05       2.718181400973e+05       2.391131727571e+05 
       3.029641336974e-04       2.369476028966e+05       2.369405902661e+05       3.148202153734e+05       3.146878821873e+05       2.717014886389e+05       2.391018162193e+05 
       3.246599651053e-04       2.369400249172e+05       2.369319720810e+05       3.146457712479e+05       3.144939001449e+05       2.715698939043e+05       2.390890023782e+05 
       3.475520161300e-04       2.369314623513e+05       2.369222340270e+05       3.144487336272e+05       3.142748118271e+05       2.714212546431e+05       2.390745259629e+05 
       3.717641264082e-04       2.369217731532e+05       2.369112143439e+05       3.142258601128e+05       3.140270187761e+05       2.712531244901e+05       2.390581476399e+05 
       3.974310784175e-04       2.369107914186e+05       2.368987246553e+05       3.139733764040e+05       3.137463346944e+05       2.710626564048e+05       2.390395883728e+05 
       4.246990125550e-04       2.368983245576e+05       2.368845455219e+05       3.136868977294e+05       3.134278961442e+05       2.708465416780e+05       2.390185240138e+05 
       4.537255778781e-04       2.368841483220e+05       2.368684219196e+05       3.133613365740e+05       3.130660637991e+05       2.706009419613e+05       2.389945777871e+05 
       4.846797095312e-04       2.368680027797e+05       2.368500581405e+05       3.129908056590e+05       3.126543152449e+05       2.703214155043e+05       2.389673132712e+05 
       5.177409051938e-04       2.368495876250e+05       2.368291119226e+05       3.125685201151e+05       3.121851356894e+05       2.700028416488e+05       2.389362266787e+05 
       5.530978599375e-04       2.368285569261e+05       2.368051905383e+05       3.120866898766e+05       3.116499075918e+05       2.696393439728e+05       2.389007388005e+05 
       5.909463175373e-04       2.368045151469e+05       2.367778426100e+05       3.115364357166e+05       3.110388111766e+05       2.692242205366e+05       2.388601878540e+05 
       6.314860139264e-04       2.367770121109e+05       2.367465557106e+05       3.109077047571e+05       3.103407414243e+05       2.687498842370e+05       2.388138225538e+05 
       6.749166330592e-04       2.367455406893e+05       2.367107537255e+05       3.101892172683e+05       3.095432580031e+05       2.682078251175e+05       2.387607982875e+05 
       7.214327733846e-04       2.367095345565e+05       2.366697896960e+05       3.093684700410e+05       3.086325815438e+05       2.675886027742e+05       2.387001741601e+05 
       7.712180362127e-04       2.366683688944e+05       2.366229533443e+05       3.084317651083e+05       3.075936508911e+05       2.668818793086e+05       2.386309158800e+05 
       8.244384888035e-04       2.366213634539e+05       2.365694685892e+05       3.073643358362e+05       3.064102598742e+05       2.660765050343e+05       2.385519016159e+05 
       8.812359068656e-04       2.365677887194e+05       2.365085037046e+05       3.061505286383e+05       3.050652784957e+05       2.651606602609e+05       2.384619343025e+05 
       9.417213334896e-04       2.365068752555e+05       2.364391807610e+05       3.047740787796e+05       3.035409684744e+05       2.641220602393e+05       2.383597591572e+05 
       1.005969567549e-03       2.364378264947e+05       2.363605911012e+05       3.032184543937e+05       3.018193820702e+05       2.629482158577e+05       2.382440870955e+05 
       1.074015180681e-03       2.363598330425e+05       2.362718092008e+05       3.014672704294e+05       2.998828319888e+05       2.616267421474e+05       2.381136211747e+05 
       1.145850540920e-03       2.362720906366e+05       2.361719163296e+05       2.995047283220e+05       2.977143989559e+05       2.601456927749e+05       2.379670884296e+05 
       1.221426102816e-03       2.361738155624e+05       2.360600150544e+05       2.973160762764e+05       2.952984520443e+05       2.584939035880e+05       2.378032687219e+05 
       1.300652947584e-03       2.360642623936e+05       2.359352464168e+05       2.948880445644e+05       2.926211347773e+05       2.566613147128e+05       2.376210250685e+05 
       1.383407280931e-03       2.359420629962e+05       2.357960065432e+05       2.922081445503e+05       2.896715407852e+05       2.546396318586e+05       2.374186454670e+05 
       1.469536379877e-03       2.358070537653e+05       2.356421317947e+05       2.892678526921e+05       2.864400863667e+05       2.524215795476e+05       2.371957060368e+05 
       1.558865363810e-03       2.356588871590e+05       2.354732303001e+05       2.860605910504e+05       2.829201918689e+05       2.500017509166e+05       2.369516660767e+05 
       1.651204159850e-03       2.354970744290e+05       2.352887319582e+05       2.825819248935e+05       2.791084162064e+05       2.473767164426e+05       2.366859156952e+05 
       1.746354120612e-03       2.353212036473e+05       2.350881520362e+05       2.788299441928e+05       2.750042593122e+05       2.445449378349e+05       2.363979985859e+05 
       1.844113897565e-03       2.351309419455e+05       2.348710943376e+05       2.748052250323e+05       2.706101057043e+05       2.415067368995e+05       2.360876130473e+05 
       1.944284336061e-03       2.349260295372e+05       2.346372472940e+05       2.705107319890e+05       2.659311093642e+05       2.382642262438e+05       2.357546035155e+05 
       2.046672306651e-03       2.347062784018e+05       2.343863747770e+05       2.659516985033e+05       2.609750227761e+05       2.348212047848e+05       2.353989540375e+05 
       2.151093502854e-03       2.344715640885e+05       2.341183174499e+05       2.611354431997e+05       2.557519968848e+05       2.311830345594e+05       2.350207763492e+05 
       2.257374311755e-03       2.342218214140e+05       2.338329708150e+05       2.560712208289e+05       2.502743599747e+05       2.273565051434e+05       2.346202978475e+05 
       2.365352903918e-03       2.339570422674e+05       2.335303120228e+05       2.507699906236e+05       2.445563803203e+05       2.233496885975e+05       2.341978572622e+05 
       2.474879700979e-03       2.336772619770e+05       2.332103483472e+05       2.452442845297e+05       2.386140478690e+05       2.191718067964e+05       2.337538807739e+05 
       2.585817372062e-03       2.333825607725e+05       2.328731430962e+05       2.395079873203e+05       2.324648320683e+05       2.148330846685e+05       2.332888806733e+05 
       2.698040492158e-03       2.330730579602e+05       2.325188151260e+05       2.335761543631e+05       2.261274639255e+05       2.103446198682e+05       2.328034449234e+05 
       2.811434972953e-03       2.327488972426e+05       2.321474945437e+05       2.274648770535e+05       2.196217343661e+05       2.057182623190e+05       2.322982137069e+05 
       2.925897353481e-03       2.324102723498e+05       2.317593703257e+05       2.211911130449e+05       2.129682554091e+05       2.009664723728e+05       2.317739020341e+05 
       3.041334016956e-03       2.320573822364e+05       2.313546318255e+05       2.147725195577e+05       2.061883135583e+05       1.961022350231e+05       2.312312496764e+05 
       3.157660382076e-03       2.316904630283e+05       2.309335340109e+05       2.082272919524e+05       1.993036438286e+05       1.911389264316e+05       2.306710519463e+05 
       3.274800102595e-03       2.313097605332e+05       2.304962988957e+05       2.015741024287e+05       1.923362849984e+05       1.860902296450e+05       2.300941193061e+05 
       3.392684297570e-03       2.309155543036e+05       2.300432319492e+05       1.948318686326e+05       1.853083815807e+05       1.809700180212e+05       2.295013088205e+05 
       3.511250826177e-03       2.305081197028e+05       2.295745998833e+05       1.880197116803e+05       1.782420668224e+05       1.757922874307e+05       2.288934722417e+05 
       3.630443614737e-03       2.300877664702e+05       2.290907342339e+05       1.811567892141e+05       1.711592726047e+05       1.705710438205e+05       2.282714984534e+05 
       3.750212039206e-03       2.296547980154e+05       2.285919349706e+05       1.742622215696e+05       1.640816282010e+05       1.653202437459e+05       2.276362629467e+05 
       3.870510363354e-03       2.292095495177e+05       2.280785461284e+05       1.673549699267e+05       1.570302927528e+05       1.600536942003e+05       2.269886665616e+05 
       3.991297230898e-03       2.287523405260e+05       2.275508942373e+05       1.604537223767e+05       1.500258745803e+05       1.547850048382e+05       2.263295844821e+05 
       4.112535208638e-03       2.282835307221e+05       2.270093653449e+05       1.535768155440e+05       1.430882690005e+05       1.495274886782e+05       2.256599203514e+05 
       4.234190376953e-03       2.278034342396e+05       2.264542768632e+05       1.467421341006e+05       1.362366223263e+05       1.442941397850e+05       2.249805145105e+05 
       4.356231963751e-03       2.273124283772e+05       2.258860242879e+05       1.399670629099e+05       1.294891516661e+05       1.390975210866e+05       2.242922523260e+05 
       4.478632017852e-03       2.268108662420e+05       2.253049475377e+05       1.332683894813e+05       1.228631251743e+05       1.339497490783e+05       2.235959704295e+05 
       4.601365117956e-03       2.262991138978e+05       2.247114562695e+05       1.266621874060e+05       1.163747564976e+05       1.288624264179e+05       2.228925031901e+05 
       4.724408113511e-03       2.257775254469e+05       2.241059212573e+05       1.201638069337e+05       1.100391537267e+05       1.238466048322e+05       2.221826447645e+05 
       4.847739894063e-03       2.252464662860e+05       2.234887018878e+05       1.137878186966e+05       1.038702464749e+05       1.189127342894e+05       2.214671704453e+05 
       4.971341183988e-03       2.247063092078e+05       2.228601821436e+05       1.075479300009e+05       9.788073966824e+04       1.140706275557e+05       2.207468370764e+05 
       5.095194359751e-03       2.241574053661e+05       2.222207334647e+05       1.014569301123e+05       9.208208961054e+04       1.093294378689e+05       2.200223523999e+05 
       5.219283287167e-03       2.236000937773e+05       2.215707539654e+05       9.552664271627e+04       8.648446616926e+04       1.046976261808e+05       2.192943875750e+05 
       5.343593176369e-03       2.230348253005e+05       2.209106454154e+05       8.976799347118e+04       8.109668094352e+04       1.001829038046e+05       2.185636746916e+05 
       5.468110452477e-03       2.224618698603e+05       2.202407278548e+05       8.419082958633e+04       7.592630545317e+04       9.579230092367e+04       2.178307535956e+05 
       5.592822640147e-03       2.218816267537e+05       2.195614072359e+05       7.880401376581e+04       7.097953260023e+04       9.153206305948e+04       2.170962502659e+05 
       5.717718260425e-03       2.212944331905e+05       2.188730731029e+05       7.361531769205e+04       6.626126210503e+04       8.740769369645e+04       2.163607042713e+05 
       5.842786738495e-03       2.207006498043e+05       2.181760585342e+05       6.863150008916e+04       6.177508750485e+04       8.342393205330e+04       2.156246331991e+05 
       5.968018321074e-03       2.201006151134e+05       2.174707447207e+05       6.385822059487e+04       5.752333082241e+04       7.958476095138e+04       2.148885107238e+05 
       6.093404002368e-03       2.194946729831e+05       2.167574966243e+05       5.930009263168e+04       5.350706743708e+04       7.589340799648e+04       2.141527800485e+05 
       6.218935457619e-03       2.188831586050e+05       2.160366834824e+05       5.496067381323e+04       4.972616840089e+04       7.235235745638e+04       2.134178459316e+05 
       6.344604983390e-03       2.182664007887e+05       2.153085999500e+05       5.084249470271e+04       4.617934676601e+04       6.896336265645e+04       2.126840652223e+05 
       6.470405443853e-03       2.176446729789e+05       2.145735505613e+05       4.694703508793e+04       4.286421035064e+04       6.572746545646e+04       2.119517202777e+05 
       6.596330222392e-03       2.170183824303e+05       2.138320170401e+05       4.327480710209e+04       3.977730011543e+04       6.264500422290e+04       2.112212006406e+05 
       6.722373177975e-03       2.163877646075e+05       2.130842366451e+05       3.982532656267e+04       3.691418974063e+04       5.971566093231e+04       2.104926894586e+05 
       6.848528605738e-03       2.157531232047e+05       2.123305206089e+05       3.659718907456e+04       3.426952162112e+04       5.693846854719e+04       2.097664098804e+05 
       6.974791201368e-03       2.151147803529e+05       2.115711770936e+05       3.358809108429e+04       3.183708989209e+04       5.431184915459e+04       2.090425738176e+05 
       7.101156028851e-03       2.144730077976e+05       2.108065523877e+05       3.079486104096e+04       2.960991509505e+04       5.183364702379e+04       2.083213336891e+05 
       7.227618491246e-03       2.138280507211e+05       2.100368720192e+05       2.821351536063e+04       2.758031920719e+04       4.950116069476e+04       2.076027788371e+05 
       7.354174304171e-03       2.131801911824e+05       2.092624554521e+05       2.583931106240e+04       2.574000640821e+04       4.731118328752e+04       2.068870223006e+05 
       7.480819471708e-03       2.125297003378e+05       2.084836062421e+05       2.366679121519e+04       2.408014441885e+04       4.526004064595e+04       2.061741465184e+05 
       7.607550264495e-03       2.118768274082e+05       2.077005786715e+05       2.168984065333e+04       2.259144399848e+04       4.334362983595e+04       2.054641909792e+05 
       7.734363199778e-03       2.112217645968e+05       2.069136102794e+05       1.990173364998e+04       2.126423689203e+04       4.155745850170e+04       2.047571304114e+05 
       7.861255023222e-03       2.105648299656e+05       2.061230519973e+05       1.829521273959e+04       2.008857432025e+04       3.989670171184e+04       2.040530462529e+05 
       7.988222692320e-03       2.099061786018e+05       2.053290358996e+05       1.686251652160e+04       1.905427926039e+04       3.835621967251e+04       2.033518410242e+05 
       8.115263361231e-03       2.092460121004e+05       2.045317527365e+05       1.559546018101e+04       1.815104330412e+04       3.693061834232e+04       2.026534544014e+05 
       8.242374366917e-03       2.085845653554e+05       2.037315480851e+05       1.448551651247e+04       1.736850445641e+04       3.561429445859e+04       2.019578696931e+05 
       8.369553216446e-03       2.079220375327e+05       2.029285837395e+05       1.352383022256e+04       1.669631331937e+04       3.440146953536e+04       2.012650060103e+05 
       8.496797575371e-03       2.072586112869e+05       2.021231308359e+05       1.270132184286e+04       1.612420198100e+04       3.328623326177e+04       2.005747820600e+05 
       8.624105257053e-03       2.065944522806e+05       2.013153211588e+05       1.200870891940e+04       1.564205331499e+04       3.226258451159e+04       1.998870782422e+05 
       8.751474212869e-03       2.059297268970e+05       2.005053221497e+05       1.143659321423e+04       1.523996534596e+04       3.132447413125e+04       1.992017805278e+05 
       8.878902523213e-03       2.052646044558e+05       1.996933995230e+05       1.097552598126e+04       1.490830873288e+04       3.046584457498e+04       1.985187938077e+05 
       9.006388389210e-03       2.045992252027e+05       1.988796096961e+05       1.061602126080e+04       1.463777787658e+04       2.968066047921e+04       1.978379688434e+05 
       9.133930125099e-03       2.039337509713e+05       1.980642896018e+05       1.034868197724e+04       1.441944564522e+04       2.896295478997e+04       1.971592225068e+05 
       9.261526151205e-03       2.032683018412e+05       1.972474453890e+05       1.016416042338e+04       1.424479711484e+04       2.830684790617e+04       1.964823909079e+05 
